45861 51752 
45843 51740 
45829 51725 
45819 51709 
45816 51691 
45820 51674 
45829 51656 
45843 51639 
45857 51622 
45870 51606 
45877 51591 
45808 51535 
45786 51531 
45769 51531 
45761 51536 
45762 51546 
45774 51561 
45794 51582 
45876 51577 
45868 51564 
45853 51553 
45831 51543 
45850 51634 
45878 51663 
45901 51689 
45915 51711 
45921 51727 
45916 51733 
45903 51730 
45885 51717 
45862 51696 
45837 51661 
45815 51629 
45798 51596 
45785 51565 
45777 51539 
45775 51519 
45775 51505 
45778 51497 
45783 51493 
45787 51493 
45791 51494 
45794 51496 
45795 51497 
45796 51498 
45797 51499 
45797 51501 
45798 51505 
45798 51512 
45799 51520 
45799 51529 
45799 51538 
45797 51545 
45794 51548 
45789 51545 
45782 51536 
45774 51520 
45765 51500 
45756 51477 
45747 51453 
45740 51431 
45734 51414 
45731 51403 
45731 51391 
45733 51390 
45738 51393 
45744 51398 
45750 51404 
45755 51408 
45759 51409 
45759 51409 
45757 51408 
45753 51408 
45747 51409 
45741 51415 
45737 51424 
45736 51436 
45738 51451 
45744 51466 
45753 51478 
45764 51485 
45775 51485 
45785 51476 
45791 51458 
45792 51433 
45788 51402 
45780 51368 
45767 51335 
45753 51306 
45739 51282 
45726 51265 
45717 51255 
45712 51253 
45711 51256 
45713 51263 
45718 51274 
45722 51283 
45724 51292 
45722 51299 
45718 51305 
45711 51310 
45703 51314 
45694 51318 
45687 51323 
45683 51328 
45683 51334 
45687 51342 
45695 51349 
45706 51356 
45717 51362 
45729 51366 
45737 51367 
45743 51364 
45744 51357 
45741 51346 
45734 51331 
45724 51313 
45713 51293 
45702 51272 
45692 51253 
45685 51237 
45681 51226 
45681 51220 
45684 51221 
45691 51227 
45699 51237 
45709 51251 
45720 51269 
45729 51284 
45735 51297 
45738 51307 
45738 51313 
45734 51316 
45727 51317 
45718 51315 
45710 51314 
45703 51311 
45699 51309 
45700 51308 
45706 51306 
45717 51304 
45732 51301 
45750 51298 
45769 51296 
45787 51297 
45801 51301 
45812 51311 
45817 51328 
45818 51352 
45815 51384 
45811 51421 
45806 51460 
45803 51497 
45801 51529 
45802 51552 
45806 51563 
45809 51562 
45813 51547 
45814 51522 
45813 51492 
45808 51456 
45798 51420 
45787 51389 
45774 51363 
45761 51345 
45751 51333 
45744 51327 
45740 51323 
45740 51318 
45742 51312 
45744 51301 
45746 51288 
45746 51271 
45744 51255 
45740 51241 
45734 51232 
45729 51232 
45726 51240 
45727 51258 
45733 51283 
45745 51315 
45761 51349 
45781 51384 
45801 51415 
45819 51441 
45834 51461 
45843 51475 
45846 51482 
45844 51484 
45837 51484 
45828 51481 
45820 51483 
45812 51481 
45807 51481 
45805 51482 
45807 51483 
45811 51485 
45815 51489 
45819 51493 
45821 51498 
45820 51504 
45817 51512 
45812 51521 
45806 51531 
45803 51542 
45802 51552 
45805 51561 
45812 51568 
45822 51571 
45833 51569 
45844 51564 
45852 51554 
45857 51541 
45855 51525 
45849 51509 
45839 51492 
45825 51477 
45811 51464 
45798 51453 
45789 51446 
45784 51441 
45784 51440 
45789 51440 
45799 51447 
45808 51451 
45818 51457 
45825 51464 
45829 51471 
45830 51478 
45828 51486 
45823 51493 
45818 51501 
45815 51508 
45812 51514 
45814 51520 
45818 51525 
45824 51529 
45832 51532 
45839 51534 
45844 51536 
45847 51536 
45846 51535 
45841 51533 
45834 51531 
45825 51527 
45815 51523 
45808 51519 
45803 51516 
45801 51513 
45802 51511 
45806 51510 
45811 51511 
45818 51512 
45822 51514 
45825 51516 
45826 51521 
45825 51524 
45821 51526 
45816 51528 
45811 51530 
45808 51533 
45807 51536 
45809 51540 
45814 51545 
45820 51550 
45829 51554 
45836 51557 
45843 51559 
45846 51559 
45847 51557 
45844 51555 
45840 51554 
45834 51556 
45829 51561 
45826 51571 
45826 51587 
45831 51607 
45839 51631 
45850 51656 
45864 51680 
45877 51700 
45889 51714 
45899 51721 
45903 51719 
45902 51710 
45898 51696 
45889 51678 
45878 51662 
45865 51644 
45853 51630 
45843 51620 
45836 51615 
45832 51612 
45830 51610 
45831 51607 
45833 51603 
45835 51595 
45837 51584 
45837 51571 
45835 51556 
45832 51542 
45828 51531 
45824 51524 
45821 51523 
45819 51528 
45819 51539 
45822 51555 
45826 51573 
45832 51593 
45839 51613 
45845 51632 
45851 51650 
45855 51666 
45857 51679 
45857 51691 
45856 51701 
45853 51710 
45851 51716 
45850 51719 
45850 51722 
45852 51720 
45856 51715 
45862 51708 
45868 51701 
45875 51696 
45882 51692 
45887 51692 
45891 51696 
45893 51703 
45892 51712 
45890 51721 
45886 51728 
45881 51731 
45876 51729 
45871 51721 
45867 51707 
45863 51689 
45861 51668 
45859 51649 
45858 51632 
45858 51621 
45857 51615 
45857 51616 
45856 51623 
45855 51634 
45854 51646 
45853 51659 
45852 51670 
45851 51679 
45851 51684 
45852 51687 
45855 51693 
45858 51694 
45860 51695 
45864 51696 
45867 51698 
45870 51701 
45873 51704 
45875 51707 
45876 51708 
45877 51709 
45878 51709 
45877 51709 
45876 51710 
45874 51712 
45872 51715 
45871 51720 
45869 51726 
45866 51731 
45865 51735 
45863 51737 
45861 51735 
45860 51728 
45858 51718 
45857 51705 
45855 51690 
45852 51676 
45849 51665 
45846 51657 
45842 51654 
45838 51656 
45835 51662 
45831 51672 
45830 51686 
45828 51697 
45829 51706 
45831 51712 
45835 51715 
45841 51716 
45848 51715 
45855 51713 
45862 51711 
45867 51710 
45871 51712 
45874 51715 
45874 51719 
45872 51725 
45869 51730 
45866 51734 
45862 51736 
45858 51736 
45855 51734 
45853 51729 
45851 51722 
45850 51713 
45849 51704 
45848 51694 
45845 51685 
45843 51677 
45839 51671 
45835 51667 
45831 51666 
45827 51669 
45824 51674 
45823 51681 
45823 51693 
45825 51702 
45829 51710 
45833 51715 
45838 51717 
45842 51717 
45846 51714 
45848 51709 
45849 51704 
45848 51701 
45847 51700 
45844 51702 
45842 51708 
45840 51717 
45839 51728 
45839 51738 
45841 51746 
45843 51750 
45846 51749 
45848 51742 
45850 51729 
45851 51712 
45849 51692 
45847 51672 
45842 51653 
45835 51637 
45828 51626 
45821 51620 
45813 51619 
45807 51622 
45802 51628 
45798 51636 
45793 51636 
45793 51644 
45795 51651 
45798 51657 
45803 51662 
45807 51665 
45812 51668 
45817 51670 
45822 51672 
45826 51674 
45829 51675 
45832 51678 
45834 51680 
45837 51682 
45840 51685 
45843 51686 
45846 51686 
45849 51685 
45852 51681 
45855 51674 
45856 51664 
45855 51652 
45853 51636 
45848 51620 
45840 51604 
45831 51589 
45819 51577 
45808 51570 
45797 51568 
45787 51570 
45780 51577 
45777 51586 
45771 51586 
45774 51594 
45779 51600 
45786 51602 
45792 51601 
45797 51597 
45799 51591 
45798 51586 
45795 51582 
45790 51581 
45785 51585 
45781 51593 
45780 51603 
45782 51616 
45789 51629 
45799 51638 
45812 51645 
45825 51646 
45836 51641 
45842 51632 
45843 51619 
45835 51604 
45821 51588 
45802 51573 
45778 51560 
45755 51549 
45734 51541 
45718 51536 
45710 51532 
45709 51529 
45714 51527 
45725 51526 
45733 51514 
45748 51513 
45760 51515 
45768 51518 
45773 51524 
45773 51531 
45771 51539 
45768 51548 
45766 51556 
45767 51564 
45772 51570 
45781 51575 
45794 51579 
45807 51583 
45820 51585 
45830 51587 
45834 51587 
45833 51585 
45827 51581 
45815 51573 
45800 51562 
45785 51546 
45772 51528 
45761 51507 
45755 51485 
45754 51465 
45756 51449 
45762 51437 
45768 51431 
45773 51431 
45777 51436 
45778 51444 
45773 51444 
45769 51454 
45765 51462 
45760 51468 
45756 51470 
45754 51470 
45753 51469 
45754 51468 
45755 51468 
45757 51471 
45757 51477 
45758 51486 
45758 51497 
45758 51510 
45758 51522 
45759 51531 
45761 51537 
45765 51538 
45769 51534 
45775 51524 
45779 51510 
45781 51493 
45782 51473 
45780 51452 
45775 51432 
45770 51413 
45764 51397 
45759 51384 
45756 51374 
45756 51368 
45759 51365 
45765 51366 
45765 51353 
45772 51360 
45777 51369 
45780 51380 
45778 51390 
45774 51400 
45766 51408 
45756 51415 
45746 51420 
45737 51423 
45730 51427 
45728 51430 
45729 51434 
45734 51440 
45742 51446 
45751 51454 
45760 51461 
45768 51466 
45773 51468 
45777 51467 
45778 51460 
45776 51449 
45773 51434 
45769 51417 
45765 51400 
45760 51384 
45756 51372 
45752 51365 
45747 51364 
45743 51369 
45739 51378 
45736 51390 
45727 51386 
45725 51398 
45724 51409 
45725 51417 
45728 51422 
45732 51424 
45736 51423 
45741 51421 
45744 51417 
45747 51415 
45749 51413 
45750 51414 
45751 51416 
45753 51420 
45756 51425 
45760 51430 
45766 51435 
45774 51438 
45783 51439 
45790 51436 
45796 51430 
45800 51420 
45799 51405 
45795 51387 
45787 51367 
45774 51346 
45760 51326 
45744 51309 
45728 51297 
45712 51290 
45698 51290 
45687 51295 
45672 51290 
45667 51304 
45664 51321 
45664 51336 
45668 51349 
45674 51358 
45683 51362 
45693 51361 
45706 51357 
45719 51352 
45731 51348 
45742 51347 
45751 51351 
45756 51360 
45759 51374 
45757 51390 
45754 51406 
45748 51418 
45742 51424 
45735 51421 
45729 51408 
45723 51386 
45719 51357 
45715 51324 
45710 51290 
45705 51261 
45699 51238 
45693 51224 
45686 51220 
45680 51224 
45676 51235 
45676 51250 
45675 51252 
45681 51265 
45691 51275 
45703 51279 
45715 51280 
45725 51277 
45732 51273 
45734 51268 
45731 51266 
45723 51267 
45712 51271 
45699 51278 
45687 51288 
45678 51298 
45674 51308 
45674 51317 
45678 51322 
45687 51323 
45696 51320 
45705 51314 
45712 51304 
45714 51292 
45713 51277 
45709 51262 
45702 51246 
45694 51231 
45688 51217 
45684 51205 
45683 51196 
45685 51191 
45690 51190 
45696 51192 
45698 51186 
45702 51193 
45702 51201 
45700 51209 
45695 51215 
45689 51219 
45683 51220 
45679 51218 
45677 51215 
45677 51211 
45681 51210 
45686 51211 
45691 51217 
45696 51226 
45698 51239 
45696 51253 
45692 51266 
45684 51276 
45674 51281 
45664 51277 
45654 51266 
45646 51248 
45641 51225 
45638 51198 
45637 51171 
45638 51148 
45639 51130 
45641 51120 
45644 51118 
45646 51123 
45649 51133 
45653 51148 
45656 51156 
45663 51171 
45672 51185 
45681 51196 
45688 51205 
45694 51211 
45695 51216 
45691 51218 
45683 51221 
45672 51222 
45658 51223 
45646 51224 
45637 51224 
45632 51223 
45633 51222 
45640 51219 
45652 51216 
45667 51212 
45682 51209 
45694 51205 
45703 51201 
45705 51198 
45703 51194 
45696 51191 
45688 51187 
45681 51183 
45678 51180 
45680 51178 
45687 51177 
45701 51178 
45717 51181 
45734 51186 
45746 51186 
45755 51193 
45757 51201 
45751 51208 
45739 51215 
45721 51219 
45702 51222 
45684 51223 
45670 51224 
45662 51224 
45661 51226 
45667 51228 
45677 51233 
45690 51238 
45702 51244 
45712 51249 
45718 51252 
45718 51253 
45714 51249 
45706 51243 
45696 51233 
45687 51222 
45679 51210 
45675 51199 
45674 51191 
45677 51186 
45682 51185 
45688 51187 
45694 51192 
45699 51197 
45701 51202 
45702 51205 
45700 51201 
45696 51199 
45692 51194 
45688 51187 
45685 51179 
45682 51172 
45680 51167 
45678 51164 
45678 51163 
45677 51165 
45677 51170 
45678 51177 
45680 51185 
45684 51195 
45689 51205 
45695 51215 
45703 51226 
45711 51237 
45719 51248 
45725 51258 
45729 51267 
45731 51274 
45729 51279 
45725 51281 
45719 51279 
45712 51273 
45705 51263 
45698 51250 
45692 51235 
45688 51218 
45684 51202 
45683 51187 
45682 51172 
45681 51164 
45681 51159 
45682 51159 
45683 51161 
45685 51166 
45686 51172 
45688 51177 
45689 51182 
45690 51184 
45690 51184 
45689 51182 
45687 51179 
45683 51176 
45680 51174 
45676 51174 
45674 51178 
45674 51187 
45677 51202 
45684 51221 
45693 51244 
45705 51270 
45718 51296 
45732 51320 
45743 51340 
45752 51354 
45758 51360 
45759 51359 
45757 51350 
45753 51334 
45747 51314 
45740 51291 
45734 51266 
45730 51244 
45726 51225 
45724 51211 
45722 51201 
45720 51197 
45718 51197 
45714 51200 
45709 51205 
45703 51211 
45697 51216 
45692 51219 
45688 51222 
45686 51222 
45687 51222 
45691 51222 
45697 51223 
45705 51227 
45713 51235 
45721 51247 
45729 51265 
45735 51289 
45741 51316 
45745 51347 
45750 51379 
45754 51410 
45759 51438 
45766 51460 
45772 51474 
45778 51479 
45784 51477 
45787 51466 
45790 51451 
45790 51431 
45786 51409 
45781 51388 
45773 51371 
45764 51358 
45755 51349 
45746 51344 
45739 51342 
45732 51340 
45727 51337 
45724 51333 
45722 51325 
45721 51316 
45721 51305 
45722 51296 
45725 51289 
45728 51286 
45734 51290 
45741 51300 
45749 51316 
45759 51337 
45770 51361 
45781 51387 
45790 51410 
45798 51431 
45803 51447 
45805 51459 
45804 51467 
45800 51471 
45795 51473 
45788 51473 
45784 51479 
45778 51480 
45773 51480 
45770 51479 
45769 51476 
45770 51469 
45772 51458 
45774 51443 
45775 51425 
45774 51404 
45772 51382 
45767 51361 
45761 51343 
45753 51329 
45746 51320 
45740 51318 
45736 51321 
45734 51330 
45735 51342 
45739 51357 
45745 51374 
45753 51392 
45760 51409 
45768 51427 
45773 51443 
45776 51459 
45778 51473 
45779 51485 
45779 51496 
45780 51504 
45782 51510 
45786 51514 
45796 51522 
45805 51521 
45814 51519 
45823 51515 
45829 51511 
45832 51506 
45830 51500 
45823 51493 
45811 51485 
45795 51475 
45778 51463 
45759 51448 
45742 51431 
45728 51412 
45719 51393 
45716 51375 
45717 51359 
45722 51349 
45731 51344 
45742 51345 
45752 51354 
45761 51369 
45769 51388 
45774 51409 
45778 51431 
45780 51451 
45780 51468 
45781 51480 
45783 51488 
45784 51491 
45786 51491 
45789 51489 
45793 51493 
45795 51492 
45795 51491 
45795 51491 
45792 51491 
45789 51491 
45786 51489 
45781 51484 
45777 51475 
45773 51461 
45768 51443 
45764 51421 
45760 51398 
45755 51375 
45750 51355 
45744 51339 
45738 51329 
45733 51327 
45729 51332 
45727 51344 
45727 51361 
45730 51382 
45736 51405 
45744 51428 
45753 51449 
45762 51466 
45772 51479 
45780 51487 
45786 51492 
45790 51494 
45791 51493 
45791 51490 
45791 51492 
45787 51488 
45783 51483 
45779 51477 
45775 51469 
45771 51459 
45767 51448 
45764 51435 
45760 51420 
45756 51405 
45753 51390 
45748 51376 
45744 51364 
45739 51355 
45735 51350 
45733 51348 
45731 51350 
45730 51356 
45732 51365 
45734 51377 
45739 51390 
45744 51405 
45751 51420 
45758 51435 
45765 51449 
45771 51461 
45775 51470 
45779 51477 
45780 51480 
45780 51480 
45778 51477 
45774 51471 
45772 51470 
45767 51460 
45762 51449 
45757 51439 
45754 51428 
45752 51418 
45751 51409 
45750 51399 
45751 51390 
45751 51381 
45750 51371 
45749 51361 
45746 51351 
45743 51343 
45740 51337 
45737 51335 
45735 51338 
45735 51347 
45737 51361 
45741 51381 
45747 51404 
45754 51430 
45762 51455 
45770 51477 
45776 51494 
45781 51503 
45782 51505 
45780 51499 
45776 51486 
45770 51468 
45763 51446 
45756 51423 
45751 51410 
45746 51393 
45744 51380 
45744 51372 
45745 51370 
45747 51372 
45751 51378 
45754 51385 
45756 51392 
45757 51398 
45757 51401 
45755 51402 
45754 51400 
45751 51396 
45750 51392 
45749 51388 
45750 51386 
45753 51389 
45757 51395 
45762 51407 
45768 51424 
45774 51445 
45779 51469 
45784 51493 
45787 51514 
45788 51531 
45788 51542 
45786 51545 
45783 51541 
45780 51529 
45775 51512 
45771 51492 
45769 51478 
45765 51459 
45762 51443 
45759 51433 
45758 51428 
45756 51428 
45756 51431 
45757 51437 
45758 51442 
45759 51445 
45761 51445 
45763 51442 
45765 51435 
45768 51427 
45770 51419 
45772 51413 
45774 51411 
45777 51415 
45780 51424 
45782 51437 
45785 51455 
45788 51473 
45791 51491 
45793 51505 
45795 51514 
45795 51517 
45794 51513 
45792 51503 
45789 51489 
45784 51473 
45778 51457 
45771 51443 
45766 51438 
45760 51432 
45756 51431 
45753 51433 
45753 51437 
45756 51442 
45760 51445 
45766 51447 
45773 51447 
45781 51444 
45787 51439 
45793 51434 
45796 51429 
45798 51427 
45798 51427 
45795 51432 
45792 51441 
45788 51453 
45785 51469 
45783 51486 
45781 51502 
45782 51516 
45784 51526 
45787 51532 
45790 51532 
45793 51527 
45794 51517 
45793 51505 
45789 51491 
45783 51478 
45775 51466 
45765 51458 
45755 51458 
45745 51457 
45737 51458 
45732 51461 
45729 51464 
45729 51465 
45733 51464 
45738 51460 
45744 51452 
45751 51442 
45757 51432 
45761 51423 
45765 51417 
45767 51415 
45767 51419 
45768 51428 
45768 51442 
45769 51460 
45771 51479 
45774 51497 
45778 51513 
45782 51525 
45784 51533 
45786 51535 
45786 51532 
45783 51526 
45779 51517 
45773 51507 
45766 51496 
45760 51486 
45755 51477